time[a]   insol[W/m2]
-800000.00    468.578
-799000.00    473.016
-798000.00    478.916
-797000.00    485.984
-796000.00    493.837
-795000.00    502.025
-794000.00    510.057
-793000.00    517.424
-792000.00    523.640
-791000.00    528.271
-790000.00    530.978
-789000.00    531.545
-788000.00    529.907
-787000.00    526.161
-786000.00    520.566
-785000.00    513.525
-784000.00    505.560
-783000.00    497.265
-782000.00    489.260
-781000.00    482.138
-780000.00    476.413
-779000.00    472.479
-778000.00    470.573
-777000.00    470.744
-776000.00    472.848
-775000.00    476.547
-774000.00    481.331
-773000.00    486.564
-772000.00    491.550
-771000.00    495.618
-770000.00    498.211
-769000.00    498.972
-768000.00    497.804
-767000.00    494.890
-766000.00    490.673
-765000.00    485.786
-764000.00    480.956
-763000.00    476.899
-762000.00    474.210
-761000.00    473.279
-760000.00    474.240
-759000.00    476.958
-758000.00    481.044
-757000.00    485.923
-756000.00    490.924
-755000.00    495.392
-754000.00    498.803
-753000.00    500.854
-752000.00    501.514
-751000.00    501.021
-750000.00    499.829
-749000.00    498.511
-748000.00    497.648
-747000.00    497.718
-746000.00    499.007
-745000.00    501.553
-744000.00    505.132
-743000.00    509.280
-742000.00    513.356
-741000.00    516.644
-740000.00    518.458
-739000.00    518.266
-738000.00    515.777
-737000.00    511.005
-736000.00    504.274
-735000.00    496.177
-734000.00    487.495
-733000.00    479.091
-732000.00    471.797
-731000.00    466.329
-730000.00    463.201
-729000.00    462.690
-728000.00    464.812
-727000.00    469.326
-726000.00    475.759
-725000.00    483.456
-724000.00    491.638
-723000.00    499.486
-722000.00    506.221
-721000.00    511.188
-720000.00    513.923
-719000.00    514.197
-718000.00    512.031
-717000.00    507.677
-716000.00    501.580
-715000.00    494.318
-714000.00    486.540
-713000.00    478.905
-712000.00    472.028
-711000.00    466.440
-710000.00    462.565
-709000.00    460.704
-708000.00    461.028
-707000.00    463.577
-706000.00    468.270
-705000.00    474.901
-704000.00    483.154
-703000.00    492.611
-702000.00    502.768
-701000.00    513.054
-700000.00    522.856
-699000.00    531.559
-698000.00    538.578
-697000.00    543.400
-696000.00    545.633
-695000.00    545.031
-694000.00    541.534
-693000.00    535.271
-692000.00    526.567
-691000.00    515.923
-690000.00    503.978
-689000.00    491.468
-688000.00    479.174
-687000.00    467.865
-686000.00    458.251
-685000.00    450.935
-684000.00    446.383
-683000.00    444.891
-682000.00    446.567
-681000.00    451.316
-680000.00    458.828
-679000.00    468.584
-678000.00    479.869
-677000.00    491.810
-676000.00    503.438
-675000.00    513.775
-674000.00    521.933
-673000.00    527.222
-672000.00    529.233
-671000.00    527.901
-670000.00    523.514
-669000.00    516.676
-668000.00    508.229
-667000.00    499.145
-666000.00    490.405
-665000.00    482.894
-664000.00    477.309
-663000.00    474.099
-662000.00    473.438
-661000.00    475.221
-660000.00    479.086
-659000.00    484.468
-658000.00    490.667
-657000.00    496.933
-656000.00    502.561
-655000.00    506.973
-654000.00    509.790
-653000.00    510.856
-652000.00    510.238
-651000.00    508.179
-650000.00    505.037
-649000.00    501.207
-648000.00    497.055
-647000.00    492.869
-646000.00    488.833
-645000.00    485.034
-644000.00    481.492
-643000.00    478.197
-642000.00    475.157
-641000.00    472.440
-640000.00    470.187
-639000.00    468.619
-638000.00    468.008
-637000.00    468.639
-636000.00    470.760
-635000.00    474.525
-634000.00    479.952
-633000.00    486.891
-632000.00    495.010
-631000.00    503.810
-630000.00    512.656
-629000.00    520.834
-628000.00    527.625
-627000.00    532.386
-626000.00    534.620
-625000.00    534.047
-624000.00    530.630
-623000.00    524.589
-622000.00    516.374
-621000.00    506.617
-620000.00    496.066
-619000.00    485.519
-618000.00    475.751
-617000.00    467.458
-616000.00    461.216
-615000.00    457.446
-614000.00    456.396
-613000.00    458.133
-612000.00    462.542
-611000.00    469.324
-610000.00    478.013
-609000.00    487.993
-608000.00    498.531
-607000.00    508.828
-606000.00    518.067
-605000.00    525.490
-604000.00    530.461
-603000.00    532.526
-602000.00    531.463
-601000.00    527.302
-600000.00    520.326
-599000.00    511.042
-598000.00    500.133
-597000.00    488.397
-596000.00    476.681
-595000.00    465.813
-594000.00    456.554
-593000.00    449.550
-592000.00    445.305
-591000.00    444.159
-590000.00    446.276
-589000.00    451.637
-588000.00    460.031
-587000.00    471.053
-586000.00    484.108
-585000.00    498.428
-584000.00    513.104
-583000.00    527.138
-582000.00    539.513
-581000.00    549.288
-580000.00    555.682
-579000.00    558.167
-578000.00    556.532
-577000.00    550.915
-576000.00    541.798
-575000.00    529.959
-574000.00    516.396
-573000.00    502.216
-572000.00    488.538
-571000.00    476.380
-570000.00    466.586
-569000.00    459.761
-568000.00    456.234
-567000.00    456.045
-566000.00    458.945
-565000.00    464.416
-564000.00    471.711
-563000.00    479.927
-562000.00    488.086
-561000.00    495.252
-560000.00    500.638
-559000.00    503.710
-558000.00    504.248
-557000.00    502.368
-556000.00    498.484
-555000.00    493.236
-554000.00    487.384
-553000.00    481.700
-552000.00    476.870
-551000.00    473.423
-550000.00    471.688
-549000.00    471.784
-548000.00    473.630
-547000.00    476.987
-546000.00    481.498
-545000.00    486.748
-544000.00    492.315
-543000.00    497.820
-542000.00    502.955
-541000.00    507.505
-540000.00    511.346
-539000.00    514.429
-538000.00    516.759
-537000.00    518.363
-536000.00    519.269
-535000.00    519.482
-534000.00    518.978
-533000.00    517.705
-532000.00    515.598
-531000.00    512.598
-530000.00    508.678
-529000.00    503.868
-528000.00    498.273
-527000.00    492.083
-526000.00    485.574
-525000.00    479.088
-524000.00    473.016
-523000.00    467.760
-522000.00    463.701
-521000.00    461.164
-520000.00    460.388
-519000.00    461.501
-518000.00    464.505
-517000.00    469.265
-516000.00    475.515
-515000.00    482.868
-514000.00    490.837
-513000.00    498.870
-512000.00    506.391
-511000.00    512.847
-510000.00    517.756
-509000.00    520.748
-508000.00    521.602
-507000.00    520.265
-506000.00    516.859
-505000.00    511.662
-504000.00    505.094
-503000.00    497.670
-502000.00    489.966
-501000.00    482.572
-500000.00    476.053
-499000.00    470.913
-498000.00    467.561
-497000.00    466.292
-496000.00    467.267
-495000.00    470.498
-494000.00    475.835
-493000.00    482.971
-492000.00    491.438
-491000.00    500.630
-490000.00    509.831
-489000.00    518.264
-488000.00    525.155
-487000.00    529.808
-486000.00    531.686
-485000.00    530.473
-484000.00    526.135
-483000.00    518.929
-482000.00    509.395
-481000.00    498.303
-480000.00    486.580
-479000.00    475.213
-478000.00    465.158
-477000.00    457.253
-476000.00    452.150
-475000.00    450.263
-474000.00    451.738
-473000.00    456.437
-472000.00    463.939
-471000.00    473.566
-470000.00    484.429
-469000.00    495.506
-468000.00    505.748
-467000.00    514.201
-466000.00    520.121
-465000.00    523.081
-464000.00    523.016
-463000.00    520.228
-462000.00    515.330
-461000.00    509.148
-460000.00    502.596
-459000.00    496.555
-458000.00    491.766
-457000.00    488.745
-456000.00    487.736
-455000.00    488.701
-454000.00    491.330
-453000.00    495.089
-452000.00    499.291
-451000.00    503.187
-450000.00    506.071
-449000.00    507.381
-448000.00    506.781
-447000.00    504.209
-446000.00    499.888
-445000.00    494.281
-444000.00    488.020
-443000.00    481.809
-442000.00    476.325
-441000.00    472.131
-440000.00    469.610
-439000.00    468.925
-438000.00    470.016
-437000.00    472.616
-436000.00    476.294
-435000.00    480.518
-434000.00    484.727
-433000.00    488.412
-432000.00    491.179
-431000.00    492.803
-430000.00    493.244
-429000.00    492.648
-428000.00    491.310
-427000.00    489.623
-426000.00    488.023
-425000.00    486.924
-424000.00    486.676
-423000.00    487.522
-422000.00    489.580
-421000.00    492.829
-420000.00    497.120
-419000.00    502.182
-418000.00    507.656
-417000.00    513.117
-416000.00    518.119
-415000.00    522.227
-414000.00    525.060
-413000.00    526.322
-412000.00    525.831
-411000.00    523.536
-410000.00    519.523
-409000.00    514.004
-408000.00    507.307
-407000.00    499.839
-406000.00    492.062
-405000.00    484.447
-404000.00    477.446
-403000.00    471.456
-402000.00    466.797
-401000.00    463.688
-400000.00    462.239
-399000.00    462.444
-398000.00    464.188
-397000.00    467.249
-396000.00    471.324
-395000.00    476.045
-394000.00    481.012
-393000.00    485.826
-392000.00    490.122
-391000.00    493.603
-390000.00    496.070
-389000.00    497.434
-388000.00    497.725
-387000.00    497.088
-386000.00    495.758
-385000.00    494.040
-384000.00    492.269
-383000.00    490.777
-382000.00    489.859
-381000.00    489.742
-380000.00    490.560
-379000.00    492.343
-378000.00    495.008
-377000.00    498.365
-376000.00    502.131
-375000.00    505.956
-374000.00    509.460
-373000.00    512.269
-372000.00    514.065
-371000.00    514.621
-370000.00    513.839
-369000.00    511.760
-368000.00    508.569
-367000.00    504.574
-366000.00    500.168
-365000.00    495.781
-364000.00    491.825
-363000.00    488.642
-362000.00    486.457
-361000.00    485.346
-360000.00    485.225
-359000.00    485.850
-358000.00    486.855
-357000.00    487.798
-356000.00    488.229
-355000.00    487.768
-354000.00    486.173
-353000.00    483.399
-352000.00    479.620
-351000.00    475.222
-350000.00    470.756
-349000.00    466.868
-348000.00    464.216
-347000.00    463.378
-346000.00    464.784
-345000.00    468.646
-344000.00    474.928
-343000.00    483.325
-342000.00    493.279
-341000.00    504.017
-340000.00    514.618
-339000.00    524.110
-338000.00    531.574
-337000.00    536.259
-336000.00    537.678
-335000.00    535.668
-334000.00    530.416
-333000.00    522.433
-332000.00    512.491
-331000.00    501.529
-330000.00    490.549
-329000.00    480.515
-328000.00    472.265
-327000.00    466.450
-326000.00    463.487
-325000.00    463.541
-324000.00    466.515
-323000.00    472.061
-322000.00    479.602
-321000.00    488.375
-320000.00    497.493
-319000.00    506.019
-318000.00    513.070
-317000.00    517.902
-316000.00    520.001
-315000.00    519.138
-314000.00    515.395
-313000.00    509.144
-312000.00    501.002
-311000.00    491.744
-310000.00    482.225
-309000.00    473.286
-308000.00    465.682
-307000.00    460.029
-306000.00    456.770
-305000.00    456.154
-304000.00    458.236
-303000.00    462.883
-302000.00    469.791
-301000.00    478.501
-300000.00    488.436
-299000.00    498.931
-298000.00    509.286
-297000.00    518.806
-296000.00    526.865
-295000.00    532.942
-294000.00    536.674
-293000.00    537.870
-292000.00    536.530
-291000.00    532.834
-290000.00    527.117
-289000.00    519.833
-288000.00    511.512
-287000.00    502.713
-286000.00    493.976
-285000.00    485.790
-284000.00    478.561
-283000.00    472.593
-282000.00    468.085
-281000.00    465.125
-280000.00    463.704
-279000.00    463.727
-278000.00    465.030
-277000.00    467.404
-276000.00    470.611
-275000.00    474.405
-274000.00    478.547
-273000.00    482.818
-272000.00    487.023
-271000.00    490.993
-270000.00    494.586
-269000.00    497.679
-268000.00    500.172
-267000.00    501.979
-266000.00    503.034
-265000.00    503.299
-264000.00    502.770
-263000.00    501.486
-262000.00    499.541
-261000.00    497.088
-260000.00    494.337
-259000.00    491.548
-258000.00    489.017
-257000.00    487.052
-256000.00    485.950
-255000.00    485.967
-254000.00    487.288
-253000.00    490.002
-252000.00    494.080
-251000.00    499.361
-250000.00    505.542
-249000.00    512.188
-248000.00    518.747
-247000.00    524.591
-246000.00    529.063
-245000.00    531.546
-244000.00    531.537
-243000.00    528.712
-242000.00    522.989
-241000.00    514.555
-240000.00    503.866
-239000.00    491.617
-238000.00    478.673
-237000.00    465.993
-236000.00    454.535
-235000.00    445.181
-234000.00    438.662
-233000.00    435.510
-232000.00    436.026
-231000.00    440.259
-230000.00    447.998
-229000.00    458.775
-228000.00    471.883
-227000.00    486.411
-226000.00    501.307
-225000.00    515.458
-224000.00    527.791
-223000.00    537.376
-222000.00    543.522
-221000.00    545.845
-220000.00    544.303
-219000.00    539.189
-218000.00    531.085
-217000.00    520.799
-216000.00    509.267
-215000.00    497.472
-214000.00    486.357
-213000.00    476.764
-212000.00    469.379
-211000.00    464.708
-210000.00    463.054
-209000.00    464.507
-208000.00    468.943
-207000.00    476.024
-206000.00    485.209
-205000.00    495.772
-204000.00    506.846
-203000.00    517.473
-202000.00    526.685
-201000.00    533.589
-200000.00    537.463
-199000.00    537.839
-198000.00    534.560
-197000.00    527.807
-196000.00    518.081
-195000.00    506.149
-194000.00    492.965
-193000.00    479.562
-192000.00    466.964
-191000.00    456.092
-190000.00    447.701
-189000.00    442.338
-188000.00    440.320
-187000.00    441.726
-186000.00    446.406
-185000.00    453.992
-184000.00    463.924
-183000.00    475.488
-182000.00    487.862
-181000.00    500.182
-180000.00    511.607
-179000.00    521.395
-178000.00    528.963
-177000.00    533.932
-176000.00    536.150
-175000.00    535.693
-174000.00    532.828
-173000.00    527.981
-172000.00    521.671
-171000.00    514.461
-170000.00    506.905
-169000.00    499.505
-168000.00    492.683
-167000.00    486.769
-166000.00    481.990
-165000.00    478.481
-164000.00    476.290
-163000.00    475.394
-162000.00    475.714
-161000.00    477.122
-160000.00    479.459
-159000.00    482.535
-158000.00    486.138
-157000.00    490.031
-156000.00    493.961
-155000.00    497.654
-154000.00    500.832
-153000.00    503.221
-152000.00    504.570
-151000.00    504.681
-150000.00    503.428
-149000.00    500.788
-148000.00    496.855
-147000.00    491.849
-146000.00    486.108
-145000.00    480.073
-144000.00    474.250
-143000.00    469.171
-142000.00    465.352
-141000.00    463.247
-140000.00    463.209
-139000.00    465.460
-138000.00    470.062
-137000.00    476.906
-136000.00    485.699
-135000.00    495.973
-134000.00    507.099
-133000.00    518.325
-132000.00    528.821
-131000.00    537.749
-130000.00    544.336
-129000.00    547.952
-128000.00    548.182
-127000.00    544.875
-126000.00    538.167
-125000.00    528.480
-124000.00    516.484
-123000.00    503.033
-122000.00    489.084
-121000.00    475.618
-120000.00    463.555
-119000.00    453.688
-118000.00    446.637
-117000.00    442.810
-116000.00    442.390
-115000.00    445.331
-114000.00    451.353
-113000.00    459.964
-112000.00    470.481
-111000.00    482.075
-110000.00    493.827
-109000.00    504.808
-108000.00    514.163
-107000.00    521.191
-106000.00    525.417
-105000.00    526.633
-104000.00    524.918
-103000.00    520.612
-102000.00    514.269
-101000.00    506.593
-100000.00    498.355
 -99000.00    490.330
 -98000.00    483.220
 -97000.00    477.618
 -96000.00    473.964
 -95000.00    472.531
 -94000.00    473.418
 -93000.00    476.548
 -92000.00    481.677
 -91000.00    488.413
 -90000.00    496.233
 -89000.00    504.523
 -88000.00    512.610
 -87000.00    519.821
 -86000.00    525.531
 -85000.00    529.222
 -84000.00    530.529
 -83000.00    529.281
 -82000.00    525.513
 -81000.00    519.468
 -80000.00    511.572
 -79000.00    502.389
 -78000.00    492.569
 -77000.00    482.790
 -76000.00    473.699
 -75000.00    465.865
 -74000.00    459.738
 -73000.00    455.628
 -72000.00    453.691
 -71000.00    453.928
 -70000.00    456.196
 -69000.00    460.223
 -68000.00    465.636
 -67000.00    471.993
 -66000.00    478.821
 -65000.00    485.655
 -64000.00    492.076
 -63000.00    497.743
 -62000.00    502.417
 -61000.00    505.967
 -60000.00    508.371
 -59000.00    509.700
 -58000.00    510.096
 -57000.00    509.745
 -56000.00    508.852
 -55000.00    507.615
 -54000.00    506.209
 -53000.00    504.770
 -52000.00    503.397
 -51000.00    502.149
 -50000.00    501.050
 -49000.00    500.105
 -48000.00    499.301
 -47000.00    498.627
 -46000.00    498.071
 -45000.00    497.631
 -44000.00    497.312
 -43000.00    497.121
 -42000.00    497.058
 -41000.00    497.115
 -40000.00    497.262
 -39000.00    497.442
 -38000.00    497.569
 -37000.00    497.530
 -36000.00    497.192
 -35000.00    496.418
 -34000.00    495.082
 -33000.00    493.094
 -32000.00    490.415
 -31000.00    487.082
 -30000.00    483.212
 -29000.00    479.003
 -28000.00    474.727
 -27000.00    470.709
 -26000.00    467.300
 -25000.00    464.844
 -24000.00    463.647
 -23000.00    463.944
 -22000.00    465.876
 -21000.00    469.469
 -20000.00    474.623
 -19000.00    481.111
 -18000.00    488.586
 -17000.00    496.602
 -16000.00    504.646
 -15000.00    512.173
 -14000.00    518.657
 -13000.00    523.637
 -12000.00    526.763
 -11000.00    527.832
 -10000.00    526.809
  -9000.00    523.832
  -8000.00    519.194
  -7000.00    513.321
  -6000.00    506.719
  -5000.00    499.927
  -4000.00    493.471
  -3000.00    487.809
  -2000.00    483.302
  -1000.00    480.182
      0.00    478.539
